# Standard nuclear recoil spectrum for Xenon (assuming 131 nucleons)
# Sigma_p^SI = 1e-46 cm^2 (equal couplings to n and p); m_x = 100 GeV
# rho_x = 0.3 GeV/cm^3; v_E = 230 km/s; v0 = 220 km/s, v_esc = 544 km/s
# Columns: E [keV], dRdE [events/kg/keV/day]
1.000000000000000056e-01 4.888533723368130167e-06
1.009262190987047642e-01 4.888238207534066400e-06
1.018610170155975769e-01 4.887939971058190820e-06
1.028044732093309210e-01 4.887638989046494792e-06
1.037566678745185655e-01 4.887335236381513074e-06
1.047176819485520216e-01 4.887028687718114058e-06
1.056875971184804280e-01 4.886719317482501125e-06
1.066664958279539277e-01 4.886407099869320869e-06
1.076544612842315340e-01 4.886092008842288211e-06
1.086515774652538069e-01 4.885774018127046754e-06
1.096579291267809897e-01 4.885453101215511527e-06
1.106736018095973717e-01 4.885129231357970397e-06
1.116986818467823189e-01 4.884802381565234688e-06
1.127332563710486818e-01 4.884472524603982196e-06
1.137774133221491069e-01 4.884139632995195256e-06
1.148312414543511129e-01 4.883803679013199363e-06
1.158948303439810978e-01 4.883464634681661785e-06
1.169682703970385262e-01 4.883122471772892766e-06
1.180516528568805179e-01 4.882777161804963068e-06
1.191450698119776025e-01 4.882428676039435618e-06
1.202486142037412220e-01 4.882076985479447827e-06
1.213623798344240778e-01 4.881722060867527938e-06
1.224864613750931419e-01 4.881363872682661750e-06
1.236209543736768862e-01 4.881002391138409667e-06
1.247659552630869806e-01 4.880637586180727276e-06
1.259215613694150970e-01 4.880269427486195056e-06
1.270878709202058476e-01 4.879897884458047481e-06
1.282649830528060642e-01 4.879522926224874523e-06
1.294529978227915712e-01 4.879144521639315523e-06
1.306520162124721329e-01 4.878762639272920246e-06
1.318621401394748371e-01 4.878377247415967615e-06
1.330834724654074985e-01 4.877988314074331686e-06
1.343161170046016095e-01 4.877595806967095561e-06
1.355601785329368647e-01 4.877199693523743469e-06
1.368157627967472034e-01 4.876799940882067753e-06
1.380829765218092309e-01 4.876396515885510029e-06
1.393619274224142390e-01 4.875989385080631946e-06
1.406527242105237163e-01 4.875578514714161585e-06
1.419554766050101224e-01 4.875163870731221464e-06
1.432702953409830948e-01 4.874745418772106425e-06
1.445972921792019472e-01 4.874323124169614633e-06
1.459365799155756538e-01 4.873896951946753811e-06
1.472882723907502633e-01 4.873466866814125602e-06
1.486524844997856865e-01 4.873032833167045658e-06
1.500293322019218278e-01 4.872594815082368959e-06
1.514189325304352018e-01 4.872152776316571285e-06
1.528214036025870026e-01 4.871706680302880314e-06
1.542368646296628232e-01 4.871256490147819728e-06
1.556654359271061605e-01 4.870802168629267814e-06
1.571072389247450407e-01 4.870343678193047308e-06
1.585623961771137069e-01 4.869880980950628243e-06
1.600310313738700918e-01 4.869414038675071510e-06
1.615132693503090466e-01 4.868942812800095422e-06
1.630092360979740751e-01 4.868467264415647431e-06
1.645190587753662392e-01 4.867987354264942053e-06
1.660428657187530133e-01 4.867503042742804068e-06
1.675807864530767799e-01 4.867014289891943274e-06
1.691329517029648011e-01 4.866521055399029333e-06
1.706994934038407463e-01 4.866023298593552513e-06
1.722805447131393886e-01 4.865520978443062516e-06
1.738762400216250781e-01 4.865014053551161854e-06
1.754867149648151048e-01 4.864502482154351505e-06
1.771121064345087814e-01 4.863986222118123543e-06
1.787525525904234969e-01 4.863465230934734290e-06
1.804081928719382666e-01 4.862939465720067757e-06
1.820791680099462795e-01 4.862408883209588516e-06
1.837656200388171346e-01 4.861873439755443155e-06
1.854676923084698503e-01 4.861333091324147033e-06
1.871855294965578675e-01 4.860787793492132270e-06
1.889192776207666291e-01 4.860237501443175312e-06
1.906690840512252350e-01 4.859682169964890213e-06
1.924350975230331162e-01 4.859121753445410810e-06
1.942174681489025334e-01 4.858556205869948374e-06
1.960163474319185639e-01 4.857985480817970997e-06
1.978318882784164401e-01 4.857409531458590649e-06
1.996642450109794020e-01 4.856828310548792030e-06
2.015135733815557606e-01 4.856241770428114899e-06
2.033800305846981127e-01 4.855649863017466533e-06
2.052637752709252084e-01 4.855052539813230615e-06
2.071649675602068863e-01 4.854449751885308042e-06
2.090837690555750472e-01 4.853841449873413703e-06
2.110203428568595552e-01 4.853227583982722724e-06
2.129748535745520088e-01 4.852608103981141332e-06
2.149474673437980488e-01 4.851982959195167403e-06
2.169383518385184229e-01 4.851352098506548918e-06
2.189476762856621128e-01 4.850715470348250390e-06
2.209756114795902171e-01 4.850073022700996972e-06
2.230223297965937546e-01 4.849424703089966794e-06
2.250880052095461659e-01 4.848770458580030634e-06
2.271728133026905128e-01 4.848110235772713613e-06
2.292769312865649278e-01 4.847443980802633425e-06
2.314005380130652878e-01 4.846771639332613796e-06
2.335438139906478860e-01 4.846093156550889284e-06
2.357069413996727703e-01 4.845408477166948880e-06
2.378901041078893275e-01 4.844717545407272051e-06
2.400934876860652545e-01 4.844020305011491678e-06
2.423172794237599403e-01 4.843316699228894115e-06
2.445616683452445927e-01 4.842606670813962102e-06
2.468268452255692469e-01 4.841890162022270891e-06
2.491130026067788494e-01 4.841167114607378790e-06
2.514203348142797223e-01 4.840437469815235048e-06
2.537490379733570167e-01 4.839701168381191522e-06
2.560993100258458499e-01 4.838958150526096167e-06
2.584713507469563742e-01 4.838208355951049049e-06
2.608653617622547771e-01 4.837451723834108236e-06
2.632815465648021269e-01 4.836688192825508298e-06
2.657201105324505375e-01 4.835917701044287422e-06
2.681812609453014806e-01 4.835140186072890113e-06
2.706652070033241375e-01 4.834355584953943395e-06
2.731721598441376186e-01 4.833563834185173760e-06
2.757023325609583853e-01 4.832764869715350729e-06
2.782559402207124277e-01 4.831958626940116061e-06
2.808331998823171971e-01 4.831145040697452129e-06
2.834343306151309028e-01 4.830324045262828420e-06
2.860595535175741722e-01 4.829495574345721923e-06
2.887090917359236286e-01 4.828659561083908126e-06
2.913831704832787195e-01 4.827815938040296504e-06
2.940820170587062909e-01 4.826964637197056344e-06
2.968058608665602449e-01 4.826105589952021088e-06
2.995549334359813298e-01 4.825238727114033890e-06
3.023294684405777866e-01 4.824363978897600298e-06
3.051297017182869054e-01 4.823481274919048647e-06
3.079558712914226004e-01 4.822590544191657935e-06
3.108082173869063936e-01 4.821691715120565452e-06
3.136869824566877463e-01 4.820784715498357979e-06
3.165924111983522415e-01 4.819869472500532538e-06
3.195247505759211681e-01 4.818945912680382850e-06
3.224842498408441172e-01 4.818013961964181419e-06
3.254711605531848129e-01 4.817073545646569123e-06
3.284857366030044523e-01 4.816124588385608549e-06
3.315282342319424980e-01 4.815167014197790728e-06
3.345989120549973106e-01 4.814200746453292602e-06
3.376980310825090648e-01 4.813225707870772851e-06
3.408258547423451690e-01 4.812241820512958853e-06
3.439826489022925204e-01 4.811249005780905492e-06
3.471686818926561502e-01 4.810247184409379678e-06
3.503842245290674229e-01 4.809236276461946710e-06
3.536295501355041782e-01 4.808216201325700032e-06
3.569049345675229801e-01 4.807186877706144311e-06
3.602106562357070829e-01 4.806148223621888777e-06
3.635469961293319452e-01 4.805100156400133379e-06
3.669142378402492910e-01 4.804042592670925059e-06
3.703126675869926054e-01 4.802975448361722340e-06
3.737425742391063954e-01 4.801898638693229619e-06
3.772042493416998266e-01 4.800812078172769132e-06
3.806979871402286220e-01 4.799715680590151671e-06
3.842240846055060000e-01 4.798609359011733799e-06
3.877828414589456485e-01 4.797493025775205210e-06
3.913745601980384015e-01 4.796366592484359148e-06
3.949995461220643933e-01 4.795229970003568903e-06
3.986581073580440782e-01 4.794083068452595502e-06
4.023505548869292237e-01 4.792925797200719464e-06
4.060772025700365440e-01 4.791758064861833088e-06
4.098383671757261371e-01 4.790579779288647599e-06
4.136343684063274462e-01 4.789390847567168797e-06
4.174655289253136892e-01 4.788191176011234543e-06
4.213321743847288081e-01 4.786980670157196235e-06
4.252346334528682159e-01 4.785759234757752414e-06
4.291732378422157268e-01 4.784526773777246878e-06
4.331483223376399461e-01 4.783283190385071996e-06
4.371602248248504519e-01 4.782028386950750829e-06
4.412092863191188763e-01 4.780762265038073125e-06
4.452958509942655518e-01 4.779484725399104250e-06
4.494202662119142211e-01 4.778195667969102998e-06
4.535828825510187512e-01 4.776894991860258620e-06
4.577840538376618529e-01 4.775582595356245257e-06
4.620241371751311887e-01 4.774258375906276614e-06
4.663034929742731483e-01 4.772922230119402882e-06
4.706224849841281754e-01 4.771574053758945738e-06
4.749814803228500915e-01 4.770213741736063434e-06
4.793808495089109112e-01 4.768841188104826991e-06
4.838209664925955944e-01 4.767456286055465117e-06
4.883022086877880086e-01 4.766058927908953354e-06
4.928249570040514893e-01 4.764649005111232237e-06
4.973895958790063854e-01 4.763226408227011245e-06
5.019965133110081412e-01 4.761791026933966627e-06
5.066461008921266940e-01 4.760342750016943457e-06
5.113387538414325695e-01 4.758881465361701149e-06
5.160748710385908433e-01 4.757407059949350140e-06
5.208548550577661862e-01 4.755919419850005923e-06
5.256791122018421580e-01 4.754418430217131710e-06
5.305480525369572486e-01 4.752903975281225496e-06
5.354620899273607737e-01 4.751375938343967912e-06
5.404216420705916235e-01 4.749834201772315862e-06
5.454271305329833064e-01 4.748278646992289533e-06
5.504789807854970629e-01 4.746709154483075357e-06
5.555776222398876030e-01 4.745125603770681733e-06
5.607234882852032420e-01 4.743527873422386723e-06
5.659170163246244334e-01 4.741915841040079529e-06
5.711586478126432498e-01 4.740289383254847951e-06
5.764488282925875895e-01 4.738648375720342731e-06
5.817880074344934371e-01 4.736992693106889830e-06
5.871766390733255125e-01 4.735322209095498511e-06
5.926151812475554115e-01 4.733636796371761860e-06
5.981040962380941295e-01 4.731936326619644642e-06
6.036438506075867405e-01 4.730220670515410082e-06
6.092349152400710066e-01 4.728489697721631332e-06
6.148777653810023613e-01 4.726743276881005597e-06
6.205728806776501516e-01 4.724981275610399491e-06
6.263207452198689129e-01 4.723203560494612335e-06
6.321218475812451221e-01 4.721409997080246174e-06
6.379766808606280870e-01 4.719600449869902761e-06
6.438857427240419762e-01 4.717774782315787608e-06
6.498495354469889795e-01 4.715932856813980657e-06
6.558685659571431570e-01 4.714074534697968332e-06
6.619433458774393042e-01 4.712199676232896426e-06
6.680743915695612767e-01 4.710308140609514658e-06
6.742622241778342129e-01 4.708399785937995030e-06
6.805073696735207678e-01 4.706474469242078829e-06
6.868103588995303488e-01 4.704532046452963585e-06
6.931717276155405782e-01 4.702572372403291686e-06
6.995920165435373095e-01 4.700595300821325327e-06
7.060717714137773049e-01 4.698600684324939354e-06
7.126115430111746862e-01 4.696588374415511617e-06
7.192118872221189285e-01 4.694558221472306289e-06
7.258733650817251748e-01 4.692510074746439612e-06
7.325965428215229780e-01 4.690443782354795651e-06
7.393819919175865785e-01 4.688359191274673898e-06
7.462302891391109361e-01 4.686256147337572046e-06
7.531420165974371805e-01 4.684134495223421937e-06
7.601177617955328092e-01 4.681994078455140589e-06
7.671581176779301847e-01 4.679834739392581543e-06
7.742636826811269968e-01 4.677656319226970697e-06
7.814350607844543495e-01 4.675458657975267612e-06
7.886728615614151394e-01 4.673241594474486153e-06
7.959777002314983863e-01 4.671004966376173531e-06
8.033501977124734017e-01 4.668748610140861388e-06
8.107909806731686819e-01 4.666472361032404229e-06
8.183006815867391870e-01 4.664176053112908237e-06
8.258799387844267814e-01 4.661859519236861334e-06
8.335293965098193869e-01 4.659522591046013714e-06
8.412497049736118448e-01 4.657165098964201623e-06
8.490415204088747059e-01 4.654786872191762028e-06
8.569055051268349432e-01 4.652387738700591021e-06
8.648423275731722537e-01 4.649967525228826151e-06
8.728526623848377186e-01 4.647526057275909915e-06
8.809371904473990433e-01 4.645063159097404219e-06
8.890965989529160396e-01 4.642578653700207187e-06
8.973315814583522343e-01 4.640072362837503995e-06
9.056428379445289334e-01 4.637544107003917610e-06
9.140310748756229620e-01 4.634993705430933115e-06
9.224970052592174063e-01 4.632420976082011178e-06
9.310413487069078009e-01 4.629825735648129270e-06
9.396648314954693104e-01 4.627207799543111971e-06
9.483681866285922357e-01 4.624566981899328045e-06
9.571521538991862865e-01 4.621903095563174907e-06
9.660174799522646127e-01 4.619215952090911219e-06
9.749649183484089265e-01 4.616505361744388691e-06
9.839952296278231536e-01 4.613771133487047314e-06
9.931091813749796104e-01 4.611013074979714069e-06
1.002307548283865479e+00 4.608230992576957303e-06
1.011591112223829692e+00 4.605424691323105673e-06
1.020960662306046540e+00 4.602593974948590654e-06
1.030416994950587917e+00 4.599738645866323787e-06
1.039960913954119714e+00 4.596858505168295831e-06
1.049593230558227619e+00 4.593953352622130197e-06
1.059314763518369951e+00 4.591022986667824404e-06
1.069126339173475992e+00 4.588067204414683823e-06
1.079028791516184249e+00 4.585085801638258807e-06
1.089022962263729966e+00 4.582078572777526609e-06
1.099109700929497224e+00 4.579045310931982674e-06
1.109289864895222744e+00 4.575985807859247770e-06
1.119564319483878245e+00 4.572899853972436256e-06
1.129933938033222285e+00 4.569787238337890270e-06
1.140399601970032428e+00 4.566647748672951182e-06
1.150962200885032205e+00 4.563481171343897922e-06
1.161622632608501959e+00 4.560287291364200392e-06
1.172381803286598467e+00 4.557065892392641596e-06
1.183240627458378658e+00 4.553816756731795526e-06
1.194200028133531877e+00 4.550539665326701546e-06
1.205260936870842681e+00 4.547234397763503220e-06
1.216424293857367944e+00 4.543900732268583486e-06
1.227691047988359152e+00 4.540538445707480454e-06
1.239062156947916327e+00 4.537147313584379188e-06
1.250538587290390691e+00 4.533727110041497605e-06
1.262121314522547388e+00 4.530277607858828980e-06
1.273811323186478495e+00 4.526798578454024205e-06
1.285609606943295846e+00 4.523289791882574751e-06
1.297517168657587483e+00 4.519751016837889745e-06
1.309535020482667012e+00 4.516182020652048987e-06
1.321664183946605231e+00 4.512582569296437372e-06
1.333905690039058678e+00 4.508952427382620725e-06
1.346260579298910409e+00 4.505291358163795076e-06
1.358729901902709924e+00 4.501599123535805637e-06
1.371314717753944867e+00 4.497875484039200860e-06
1.384016096573131627e+00 4.494120198860863819e-06
1.396835117988739716e+00 4.490333025836294121e-06
1.409772871628967028e+00 4.486513721451955879e-06
1.422830457214352640e+00 4.482662040847985676e-06
1.436008984651259812e+00 4.478777737821099582e-06
1.449309574126216527e+00 4.474860564827841527e-06
1.462733356201129986e+00 4.470910272987982444e-06
1.476281471909390186e+00 4.466926612088448804e-06
1.489955072852854556e+00 4.462909330587189328e-06
1.503755321299737657e+00 4.458858175617693902e-06
1.517683390283405265e+00 4.454772892993623462e-06
1.531740463702079724e+00 4.450653227213751583e-06
1.545927736419477672e+00 4.446498921467291470e-06
1.560246414366368795e+00 4.442309717639472822e-06
1.574697714643085833e+00 4.438085356317569322e-06
1.589282865622978047e+00 4.433825576797081970e-06
1.604003107056819921e+00 4.429530117088526365e-06
1.618859690178198418e+00 4.425198713924194568e-06
1.633853877809861244e+00 4.420831102765710633e-06
1.648986944471064975e+00 4.416427017811604775e-06
1.664260176485903520e+00 4.411986192005488092e-06
1.679674872092653093e+00 4.407508357044435640e-06
1.695232341554120614e+00 4.402993243387904853e-06
1.710933907269014398e+00 4.398440580266919064e-06
1.726780903884356011e+00 4.393850095693788912e-06
1.742774678408919087e+00 4.389221516472131041e-06
1.758916590327732621e+00 4.384554568207378088e-06
1.775208011717635204e+00 4.379848975317719804e-06
1.791650327363900397e+00 4.375104461045349963e-06
1.808244934877951682e+00 4.370320747468388346e-06
1.824993244816152327e+00 4.365497555513053454e-06
1.841896680799710806e+00 4.360634604966408659e-06
1.858956679635687337e+00 4.355731614489547118e-06
1.876174691439120412e+00 4.350788301631190889e-06
1.893552179756295306e+00 4.345804382841944798e-06
1.911090621689137903e+00 4.340779573488862871e-06
1.928791508020777812e+00 4.335713587870666119e-06
1.946656343342262341e+00 4.330606139233325411e-06
1.964686646180445528e+00 4.325456939786343985e-06
1.982883949127071332e+00 4.320265700719448231e-06
2.001249798969037208e+00 4.315032132219880719e-06
2.019785756819878486e+00 4.309755943490182804e-06
2.038493398252463340e+00 4.304436842766647246e-06
2.057374313432912771e+00 4.299074537338260399e-06
2.076430107255774704e+00 4.293668733566209387e-06
2.095662399480433091e+00 4.288219136904102470e-06
2.115072824868794665e+00 4.282725451918638345e-06
2.134663033324244452e+00 4.277187382311031841e-06
2.154434690031883370e+00 4.271604630938961395e-06
2.174389475600079891e+00 4.265976899839208542e-06
2.194529086203313550e+00 4.260303890250875094e-06
2.214855233726359174e+00 4.254585302639390590e-06
2.235369645909795366e+00 4.248820836721009341e-06
2.256074066496860375e+00 4.243010191488170590e-06
2.276970255381680186e+00 4.237153065235401634e-06
2.298059988758851091e+00 4.231249155585962933e-06
2.319345059274428689e+00 4.225298159519260640e-06
2.340827276178293115e+00 4.219299773398914732e-06
2.362508465477946462e+00 4.213253693001605565e-06
2.384390470093720626e+00 4.207159613546659884e-06
2.406475150015424003e+00 4.201017229726314467e-06
2.428764382460451898e+00 4.194826235736919124e-06
2.451260062033338460e+00 4.188586325310747865e-06
2.473964100886812734e+00 4.182297191748704535e-06
2.496878428884326873e+00 4.175958527953856855e-06
2.520004993764092038e+00 4.169570026465598098e-06
2.543345761304649510e+00 4.163131379494955665e-06
2.566902715491950371e+00 4.156642278960461234e-06
2.590677858688007706e+00 4.150102416524997540e-06
2.614673211801092023e+00 4.143511483633509126e-06
2.638890814457510281e+00 4.136869171551567760e-06
2.663332725174982318e+00 4.130175171404887362e-06
2.688001021537606228e+00 4.123429174219623295e-06
2.712897800372465973e+00 4.116630870963749075e-06
2.738025177927857712e+00 4.109779952589209813e-06
2.763385290053169907e+00 4.102876110075142920e-06
2.788980292380441206e+00 4.095919034472003441e-06
2.814812360507579658e+00 4.088908416946610957e-06
2.840883690183302779e+00 4.081843948828287475e-06
2.867196497493769591e+00 4.074725321655899943e-06
2.893753019050950392e+00 4.067552227225947153e-06
2.920555512182746671e+00 4.060324357641700362e-06
2.947606255124857189e+00 4.053041405363275645e-06
2.974907547214440395e+00 4.045703063258896325e-06
3.002461709085549213e+00 4.038309024657135428e-06
3.030271082866396348e+00 4.030858983400188122e-06
3.058338032378433269e+00 4.023352633898350340e-06
3.086664943337273037e+00 4.015789671185542633e-06
3.115254223555488089e+00 4.008169790975874186e-06
3.144108303147264749e+00 4.000492689721526505e-06
3.173229634734976212e+00 3.992758064671525648e-06
3.202620693657651785e+00 3.984965613931901045e-06
3.232283978181379247e+00 3.977115036526902264e-06
3.262222009711670090e+00 3.969206032461371127e-06
3.292437333007768974e+00 3.961238302784396239e-06
3.322932516398971803e+00 3.953211549654100839e-06
3.353710152002930656e+00 3.945125476403689355e-06
3.384772855945981096e+00 3.936979787608743317e-06
3.416123268585528283e+00 3.928774189155727692e-06
3.447764054734464345e+00 3.920508388311729645e-06
3.479697903887691623e+00 3.912182093795599146e-06
3.511927530450729584e+00 3.903795015850225440e-06
3.544455673970433818e+00 3.895346866316219598e-06
3.577285099367873311e+00 3.886837358706810018e-06
3.610418597173337130e+00 3.878266208284194821e-06
3.643858983763544224e+00 3.869633132137103811e-06
3.677609101601032382e+00 3.860937849259759734e-06
3.711671819475764966e+00 3.852180080632230362e-06
3.746050032748993175e+00 3.843359549302084167e-06
