#Diffuse supernova background neutrino spectra
#From Fig. 1 of 1604.03858
#Columns: E_nu [MeV], flux [cm^-2 s^-1 MeV^-1]
0.10894019206799031 0.15216988865122003
0.1300925581876593 0.21415916415437336
0.1553519722569159 0.2971481285975412
0.18551587900439162 0.4167139495877629
0.2215365589685324 0.5802528418181387
0.26455119218369566 0.8051070181399159
0.31591775918012643 1.105251837729629
0.37856426031866525 1.5252636464242328
0.4505081735948093 2.0390088284737735
0.5379810671787815 2.720718009455921
0.6424381301084462 3.5664279240115193
0.7671770926467938 4.5927083424216635
0.9035557046214325 5.754739407026051
1.094017480147488 7.093844701696055
1.3064373211824192 8.508618890185552
1.5601016484199137 9.675935203517206
1.8630186951484684 10.733133324290316
2.2247516128118967 11.490292562608301
2.656720381603415 11.497953029219385
3.172562341512849 11.42415722849024
3.7885627258638506 10.497454255665113
4.5241687893705995 9.375633064332987
5.402603761838996 7.910989297120142
6.4516000101529105 6.35126710897793
7.704274554615299 4.8689155911537165
9.200174579869206 3.5262873335916147
10.986525947386635 2.4299790794896214
13.119724125312825 1.5932603851265226
15.392296787156006 0.9932412993672379
17.855108168961923 0.6505430976740745
20.61049487700931 0.4166841122631092
24.61233042796901 0.2176433992606357
29.391182148239118 0.10476044531037343
35.09791933759006 0.0469668194518915
41.242011763812684 0.019805530032636624
47.30309329254331 0.008845629455913282
53.819085969394784 0.003801208305548905
60.74075283802076 0.0015973614708013459
67.45562585627869 0.0007007251963529535
74.31102610546782 0.0003025586150030093
81.86312899405894 0.00013149219189536045
