#Solar hep neutrino spectra
#From Fig. 1 of 1604.03858
#Columns: E_nu [MeV], flux [cm^-2 s^-1 MeV^-1]
0.10082900226910976 0.3450382971066167
0.1343581910261167 0.60653977382104
0.1613436724504507 0.8354241962948178
0.1994836931994863 1.3272177355799104
0.2440509417539383 1.9633159759588565
0.2985750926088106 2.9423581055731707
0.35943537424547206 4.262511398448339
0.4432594711895657 6.496435754752308
0.5423378506285894 9.462323506279429
0.6581730265013385 13.815778308660263
0.8183121787661484 21.25306664102144
0.985113465609149 29.841049989071987
1.1955188271585795 43.855121226400776
1.443211914546196 63.45887673607284
1.7529261280048054 87.46916368080264
2.171564632005955 125.43156652982341
2.635378047897735 179.596742205224
3.25026622832179 250.55424688544267
3.9444740173494997 340.5368871887115
4.864801350724978 456.87307524065636
5.99986007714109 589.4609726240226
7.657809503031946 723.1833378321794
9.023791498232406 780.1661003317582
10.637723351104082 781.6659584858279
13.077464013561487 587.3504750744002
14.910085456092114 358.8971176341922
16.711383603559213 185.62048584069245
17.540014557093258 78.58194970205787
18.115137862561898 28.451537304527648
18.744256433349015 0.00008005201627482453
