#Atmospheric neutrino spectra
#From Fig. 1 of 1604.03858
#Columns: E_nu [MeV], flux [cm^-2 s^-1 MeV^-1]
14.221779410186153 0.059387082260290096
16.964895895211065 0.06672800730231343
20.171922472460807 0.07614165277676374
24.565664693385532 0.08326930307344863
28.72712104279914 0.08817716342786333
34.53627744285737 0.08837228221286876
41.242011763812684 0.08689127225809509
49.24976460305322 0.0759688166037793
58.812342311206486 0.06120795126427685
70.23163736941184 0.05294663271937569
83.86815919502483 0.04563793088052542
100.15241549566254 0.03864550993576495
119.5985034832008 0.03135864770948498
142.82034002505597 0.025265611161571062
170.55104312185418 0.019998056216091596
203.66607658859712 0.015222074761842803
243.21088862151424 0.011423213985524485
290.43391680565384 0.008421477039997105
346.82600153787627 0.0060345517711875175
414.1674521548487 0.004248026927829539
494.5842516530754 0.0029586991130351663
590.6151743951528 0.0019958515375683187
705.291935721602 0.0013320697356098696
842.2349038074544 0.0008672122074173463
951.2497894317804 0.0006041421468751647
997.6877256252586 0.00013824758713209555
