#Solar 17F neutrino spectra
#From Fig. 1 of 1604.03858
#Columns: E_nu [MeV], flux [cm^-2 s^-1 MeV^-1]
0.09943757407509111 178359.9152132614
0.11514285325859872 234370.87008834115
0.1303543522270081 291600.81428143656
0.15970069174960175 439236.3713194122
0.19565369709241726 626450.2438909202
0.24241990641708466 918196.2353050814
0.3037718028389255 1345812.113172748
0.39375267297851313 2083313.5236984575
0.4823971979348659 2813336.272748186
0.5461265938207703 3314251.5702640065
0.6323824252333126 4012452.7686908026
0.7322615969791231 4726871.088273189
0.8870509409883344 5272496.600270385
1.004239060718753 5722663.649179619
1.1760411963683253 5568491.786245553
1.3465114255030466 4726871.088273189
1.457144950507019 3799169.396985235
1.559180912445061 2592028.2656501485
1.64964807409802 1585434.3302537499
1.7453643426841243 0.00007610157147346544
