#Solar pp neutrino spectra
#From Fig. 1 of 1604.03858
#Columns: E_nu [MeV], flux [cm^-2 s^-1 MeV^-1]
0.0994535961568401 61805209038.15082
0.10741675979890784 71804321563.4106
0.11809893253685225 82992151094.36607
0.1298440050312376 93207767539.7228
0.14445882312023975 107360823495.31668
0.16852223755776838 125527845337.7886
0.21108327027835122 156708341074.05563
0.2433462914922945 168680548140.60034
0.280540553995416 181567408129.01144
0.30844775425234516 176642910593.65268
0.34317831128860976 161703385709.0458
0.37287698228850663 140729364988.50018
0.39099806395529396 110317156779.67023
0.40517572585029316 77358615618.39992
0.41492730062440464 48526795685.025955
0.4272599143334061 0.000041457331192057455
